; CdTe Density=8.65, Angle=90.deg
; Photon Energy (eV), Atten Length (microns)
; http://henke.lbl.gov/optical_constants/atten2.html
   1000.00  0.141582
   1006.83  0.143323
   1013.70  0.145085
   1020.62  0.147185
   1027.58  0.149460
   1034.60  0.151778
   1041.66  0.154144
   1048.77  0.156547
   1055.93  0.159004
   1063.13  0.161500
   1070.39  0.164036
   1077.70  0.166612
   1085.05  0.169228
   1092.46  0.171885
   1099.92  0.174584
   1107.42  0.177325
   1114.98  0.180110
   1122.59  0.182938
   1130.25  0.185810
   1137.97  0.188727
   1145.74  0.191690
   1153.56  0.194699
   1161.43  0.197756
   1169.36  0.200862
   1177.34  0.204015
   1185.38  0.207218
   1193.47  0.210472
   1201.61  0.213776
   1209.81  0.217132
   1218.07  0.220542
   1226.39  0.224005
   1234.76  0.227521
   1243.19  0.231090
   1251.67  0.234715
   1260.21  0.238393
   1268.82  0.242128
   1277.48  0.245920
   1286.20  0.249770
   1294.97  0.253680
   1303.81  0.257653
   1312.71  0.261688
   1321.67  0.265786
   1330.69  0.269947
   1339.78  0.274174
   1348.92  0.278467
   1358.13  0.282827
   1367.40  0.287255
   1376.73  0.291752
   1386.13  0.296319
   1395.59  0.300958
   1405.12  0.305670
   1414.71  0.310455
   1424.36  0.315315
   1434.08  0.320252
   1443.87  0.325266
   1453.73  0.330359
   1463.65  0.335532
   1473.64  0.340788
   1483.70  0.346128
   1493.83  0.351552
   1504.02  0.357067
   1514.29  0.362668
   1524.62  0.368358
   1535.03  0.374137
   1545.51  0.380007
   1556.06  0.385968
   1566.68  0.392021
   1577.37  0.398171
   1588.14  0.404416
   1598.98  0.410760
   1609.89  0.417204
   1620.88  0.423749
   1631.94  0.430399
   1643.08  0.437154
   1654.30  0.444011
   1665.59  0.450976
   1676.96  0.458050
   1688.41  0.465235
   1699.93  0.472533
   1711.53  0.479945
   1723.21  0.487474
   1734.98  0.495311
   1746.82  0.503308
   1758.74  0.511473
   1770.75  0.519813
   1782.83  0.528298
   1795.00  0.536979
   1807.25  0.545803
   1819.59  0.554775
   1832.01  0.563895
   1844.51  0.573165
   1857.10  0.582586
   1869.78  0.592162
   1882.54  0.601894
   1895.39  0.611786
   1908.33  0.621839
   1921.35  0.632056
   1934.47  0.642441
   1947.67  0.652996
   1960.97  0.663724
   1974.35  0.674631
   1987.83  0.685716
   2001.39  0.696863
   2015.06  0.708115
   2028.81  0.719669
   2042.66  0.731758
   2056.60  0.744049
   2070.64  0.756596
   2084.77  0.769359
   2099.00  0.782368
   2113.33  0.795622
   2127.75  0.809111
   2142.27  0.822873
   2156.90  0.836869
   2171.62  0.851155
   2186.44  0.865696
   2201.37  0.880523
   2216.39  0.895648
   2231.52  0.911038
   2246.75  0.926741
   2262.09  0.942714
   2277.53  0.959031
   2293.07  0.975654
   2308.72  0.992587
   2324.48  1.00985
   2340.35  1.02741
   2356.32  1.04537
   2372.40  1.06364
   2388.60  1.08230
   2404.90  1.10132
   2421.32  1.12069
   2437.84  1.14045
   2454.48  1.16055
   2471.24  1.18114
   2488.10  1.20209
   2505.09  1.22346
   2522.19  1.24524
   2539.40  1.26744
   2556.73  1.29014
   2574.18  1.31325
   2591.76  1.33686
   2609.45  1.36091
   2627.26  1.38546
   2645.19  1.41050
   2663.24  1.43602
   2681.42  1.46213
   2699.72  1.48872
   2718.15  1.51590
   2736.70  1.54360
   2755.38  1.57188
   2774.19  1.60076
   2793.13  1.63018
   2812.19  1.66029
   2831.39  1.69096
   2850.71  1.72233
   2870.17  1.75433
   2889.76  1.78700
   2909.48  1.82040
   2929.34  1.85443
   2949.34  1.88929
   2969.47  1.92481
   2989.74  1.96113
   3010.14  1.99821
   3030.69  2.03606
   3051.38  2.07480
   3072.20  2.11428
   3093.17  2.15478
   3114.29  2.19607
   3135.54  2.23830
   3156.94  2.28145
   3178.49  2.32550
   3200.19  2.37063
   3222.03  2.41662
   3244.02  2.46382
   3266.17  2.51197
   3288.46  2.56125
   3310.90  2.61171
   3333.50  2.66319
   3356.26  2.71603
   3379.17  2.76989
   3402.23  2.82515
   3425.45  2.88160
   3448.83  2.93937
   3472.37  2.99856
   3496.07  3.05891
   3519.94  3.12048
   3543.96  1.50138
   3568.15  1.52724
   3592.51  1.55355
   3617.03  1.58030
   3641.72  1.60751
   3666.57  1.63519
   3691.60  1.66334
   3716.80  1.69198
   3742.17  1.36236
   3767.71  1.38663
   3793.43  1.41133
   3819.32  1.43647
   3845.39  1.46206
   3871.63  1.48813
   3898.06  1.51467
   3924.67  1.54167
   3951.45  1.56915
   3978.43  1.59712
   4005.58  1.62559
   4032.92  1.46872
   4060.45  1.49382
   4088.16  1.51936
   4116.07  1.54536
   4144.16  1.57185
   4172.45  1.59881
   4200.93  1.62630
   4229.60  1.65426
   4258.47  1.68273
   4287.54  1.71170
   4316.80  1.74121
   4346.27  1.18369
   4375.93  1.20434
   4405.80  1.22538
   4435.87  1.24679
   4466.15  1.26859
   4496.63  1.29077
   4527.33  1.31336
   4558.23  1.33638
   4589.34  1.35981
   4620.67  1.17883
   4652.21  1.19960
   4683.96  1.22075
   4715.93  1.24228
   4748.12  1.26421
   4780.53  1.28654
   4813.16  1.30927
   4846.01  1.33243
   4879.09  1.35601
   4912.39  1.38002
   4945.92  1.30612
   4979.68  1.32837
   5013.67  1.35101
   5047.89  1.37403
   5082.34  1.39752
   5117.03  1.42144
   5151.96  1.44580
   5187.12  1.47065
   5222.53  1.49593
   5258.18  1.52172
   5294.07  1.54796
   5330.20  1.57473
   5366.58  1.60199
   5403.21  1.62976
   5440.09  1.65807
   5477.23  1.68687
   5514.61  1.71627
   5552.25  1.74618
   5590.15  1.77668
   5628.31  1.80775
   5666.72  1.83939
   5705.40  1.87165
   5744.34  1.90449
   5783.55  1.93800
   5823.03  1.97210
   5862.77  2.00686
   5902.79  2.04227
   5943.08  2.07833
   5983.65  2.11512
   6024.49  2.15255
   6065.61  2.19074
   6107.01  2.22963
   6148.69  2.26926
   6190.66  2.30964
   6232.92  2.35076
   6275.46  2.39270
   6318.29  2.43539
   6361.42  2.47892
   6404.84  2.52325
   6448.56  2.56842
   6492.57  2.61448
   6536.89  2.66137
   6581.50  2.70918
   6626.43  2.75785
   6671.66  2.80748
   6717.19  2.85803
   6763.04  2.90954
   6809.21  2.96204
   6855.68  3.01549
   6902.48  3.07003
   6949.59  3.12556
   6997.02  3.18218
   7044.78  3.23986
   7092.87  3.29862
   7141.28  3.35851
   7190.02  3.41950
   7239.10  3.48168
   7288.51  3.54500
   7338.26  3.60956
   7388.35  3.67536
   7438.78  3.74238
   7489.55  3.81070
   7540.67  3.88028
   7592.14  3.95124
   7643.96  4.02353
   7696.14  4.09717
   7748.67  4.17221
   7801.56  4.24864
   7854.81  4.32658
   7908.42  4.40596
   7962.40  4.48692
   8016.75  4.56940
   8071.47  4.65344
   8126.56  4.73907
   8182.03  4.82630
   8237.88  4.91526
   8294.10  5.00586
   8350.72  5.09821
   8407.71  5.19230
   8465.10  5.28816
   8522.88  5.38592
   8581.05  5.48548
   8639.63  5.58694
   8698.60  5.69029
   8757.97  5.79568
   8817.75  5.90309
   8877.93  6.01252
   8938.53  6.12401
   8999.54  6.23758
   9060.97  6.35339
   9122.81  6.47137
   9185.08  6.59165
   9247.78  6.71428
   9310.90  6.83921
   9374.45  6.96652
   9438.44  7.09619
   9502.86  7.22831
   9567.72  7.36288
   9633.03  7.50011
   9698.78  7.64005
   9764.98  7.78263
   9831.63  7.92810
   9898.74  8.07627
   9966.30  8.22722
   10034.3  8.38098
   10102.8  8.53766
   10171.8  8.69734
   10241.2  8.86001
   10311.1  9.02588
   10381.5  9.19484
   10452.3  9.36708
   10523.7  9.54258
   10595.5  9.72142
   10667.8  9.90371
   10740.7  10.0894
   10814.0  10.2787
   10887.8  10.4716
   10962.1  10.6682
   11036.9  10.8685
   11112.2  11.0727
   11188.1  11.2808
   11264.5  11.4928
   11341.3  11.7090
   11418.8  11.9292
   11496.7  12.1536
   11575.2  12.3823
   11654.2  12.6153
   11733.7  12.8529
   11813.8  13.0949
   11894.4  13.3416
   11975.6  13.5930
   12057.4  13.8492
   12139.7  14.1102
   12222.5  14.3761
   12306.0  14.6474
   12390.0  14.9237
   12474.5  15.2053
   12559.7  15.4922
   12645.4  15.7846
   12731.7  16.0827
   12818.6  16.3863
   12906.1  16.6958
   12994.2  17.0111
   13082.9  17.3325
   13172.2  17.6601
   13262.1  17.9939
   13352.6  18.3340
   13443.8  18.6806
   13535.5  19.0340
   13627.9  19.3940
   13720.9  19.7608
   13814.6  20.1346
   13908.9  20.5156
   14003.8  20.9039
   14099.4  21.2995
   14195.6  21.7027
   14292.5  22.1135
   14390.1  22.5323
   14488.3  22.9590
   14587.2  23.3939
   14686.8  23.8369
   14787.0  24.2882
   14887.9  24.7484
   14989.5  25.2174
   15091.9  25.6953
   15194.9  26.1823
   15298.6  26.6785
   15403.0  27.1843
   15508.1  27.6997
   15614.0  28.2249
   15720.6  28.7601
   15827.9  29.3055
   15935.9  29.8611
   16044.7  30.4273
   16154.2  31.0044
   16264.5  31.5924
   16375.5  32.1917
   16487.2  32.8024
   16599.8  33.4246
   16713.1  34.0587
   16827.2  34.7048
   16942.0  35.3633
   17057.6  36.0343
   17174.1  36.7180
   17291.3  37.4147
   17409.3  38.1246
   17528.2  38.8479
   17647.8  39.5849
   17768.2  40.3361
   17889.5  41.1016
   18011.6  41.8815
   18134.6  42.6762
   18258.4  43.4860
   18383.0  44.3112
   18508.5  45.1519
   18634.8  46.0087
   18762.0  46.8818
   18890.0  47.7713
   19019.0  48.6777
   19148.8  49.6013
   19279.5  50.5424
   19411.1  51.5013
   19543.6  52.4783
   19677.0  53.4737
   19811.3  54.4881
   19946.5  55.5217
   20082.6  56.5749
   20219.7  57.6481
   20357.7  58.7416
   20496.7  59.8560
   20636.6  60.9914
   20777.4  62.1483
   20919.3  63.3269
   21062.1  64.5276
   21205.8  65.7512
   21350.6  66.9979
   21496.3  68.2681
   21643.0  69.5621
   21790.7  70.8806
   21939.5  72.2240
   22089.2  73.5928
   22240.0  74.9874
   22391.8  76.4084
   22544.6  77.8562
   22698.5  79.3312
   22853.4  80.8338
   23009.4  82.3648
   23166.5  83.9246
   23324.6  85.5136
   23483.8  87.1325
   23644.1  88.7819
   23805.5  90.4621
   23968.0  92.1741
   24131.6  93.9185
   24296.3  95.6955
   24462.1  97.5058
   24629.1  99.3498
   24797.2  101.228
   24966.4  103.142
   25136.9  105.092
   25308.4  107.078
   25481.2  109.102
   25655.1  111.163
   25830.2  113.263
   26006.5  115.403
   26184.0  117.582
   26362.7  119.802
   26542.7  122.063
   26723.9  39.2137
   26906.3  39.9135
   27089.9  40.6256
   27274.8  41.3506
   27461.0  42.0899
   27648.4  42.8425
   27837.1  43.6098
   28027.1  44.3913
   28218.4  45.1876
   28411.1  45.9990
   28605.0  46.8250
   28800.2  47.6677
   28996.8  48.5253
   29194.7  49.3998
   29394.0  50.2904
   29594.6  51.1976
   29796.6  52.1224
   30000.0  53.0637
