; C22H10N2O5 Density=1.43, Angle=90.deg
; Photon Energy (eV), Atten Length (microns)
; source: http://henke.lbl.gov/optical_constants/atten2.html
   1000.00  2.55186
   1006.83  2.59950
   1013.70  2.64804
   1020.62  2.69728
   1027.58  2.74735
   1034.60  2.79851
   1041.66  2.85095
   1048.77  2.90438
   1055.93  2.95936
   1063.13  3.01540
   1070.39  3.07248
   1077.70  3.13064
   1085.05  3.18991
   1092.46  3.25031
   1099.92  3.31186
   1107.42  3.37461
   1114.98  3.43854
   1122.59  3.50367
   1130.25  3.57000
   1137.97  3.63758
   1145.74  3.70644
   1153.56  3.77659
   1161.43  3.84809
   1169.36  3.92096
   1177.34  3.99519
   1185.38  4.07082
   1193.47  4.14788
   1201.61  4.22640
   1209.81  4.30641
   1218.07  4.38794
   1226.39  4.47102
   1234.76  4.55585
   1243.19  4.64258
   1251.67  4.73097
   1260.21  4.82158
   1268.82  4.91393
   1277.48  5.00856
   1286.20  5.10527
   1294.97  5.20384
   1303.81  5.30428
   1312.71  5.40667
   1321.67  5.51103
   1330.69  5.61740
   1339.78  5.72583
   1348.92  5.83637
   1358.13  5.94903
   1367.40  6.06385
   1376.73  6.18089
   1386.13  6.30017
   1395.59  6.42176
   1405.12  6.54571
   1414.71  6.67205
   1424.36  6.80083
   1434.08  6.93210
   1443.87  7.06588
   1453.73  7.20237
   1463.65  7.34153
   1473.64  7.48351
   1483.70  7.62844
   1493.83  7.77626
   1504.02  7.92811
   1514.29  8.08294
   1524.62  8.24090
   1535.03  8.40197
   1545.51  8.56619
   1556.06  8.73358
   1566.68  8.90422
   1577.37  9.07830
   1588.14  9.25576
   1598.98  9.43670
   1609.89  9.62117
   1620.88  9.80924
   1631.94  10.0010
   1643.08  10.1965
   1654.30  10.3958
   1665.59  10.5990
   1676.96  10.8062
   1688.41  11.0174
   1699.93  11.2327
   1711.53  11.4523
   1723.21  11.6761
   1734.98  11.9057
   1746.82  12.1401
   1758.74  12.3794
   1770.75  12.6238
   1782.83  12.8730
   1795.00  13.1276
   1807.25  13.3872
   1819.59  13.6519
   1832.01  13.9219
   1844.51  14.1972
   1857.10  14.4779
   1869.78  14.7641
   1882.54  15.0561
   1895.39  15.3537
   1908.33  15.6573
   1921.35  15.9669
   1934.47  16.2825
   1947.67  16.6044
   1960.97  16.9327
   1974.35  17.2675
   1987.83  17.6089
   2001.39  17.9553
   2015.06  18.3076
   2028.81  18.6679
   2042.66  19.0388
   2056.60  19.4170
   2070.64  19.8032
   2084.77  20.1970
   2099.00  20.5989
   2113.33  21.0090
   2127.75  21.4273
   2142.27  21.8543
   2156.90  22.2897
   2171.62  22.7342
   2186.44  23.1876
   2201.37  23.6504
   2216.39  24.1226
   2231.52  24.6043
   2246.75  25.0960
   2262.09  25.5975
   2277.53  26.1094
   2293.07  26.6317
   2308.72  27.1647
   2324.48  27.7086
   2340.35  28.2634
   2356.32  28.8301
   2372.40  29.4082
   2388.60  29.9981
   2404.90  30.6000
   2421.32  31.2141
   2437.84  31.8410
   2454.48  32.4804
   2471.24  33.1334
   2488.10  33.7996
   2505.09  34.4795
   2522.19  35.1734
   2539.40  35.8814
   2556.73  36.6042
   2574.18  37.3415
   2591.76  38.0946
   2609.45  38.8630
   2627.26  39.6471
   2645.19  40.4472
   2663.24  41.2635
   2681.42  42.0978
   2699.72  42.9488
   2718.15  43.8177
   2736.70  44.7042
   2755.38  45.6091
   2774.19  46.5327
   2793.13  47.4751
   2812.19  48.4369
   2831.39  49.4181
   2850.71  50.4213
   2870.17  51.4455
   2889.76  52.4906
   2909.48  53.5571
   2929.34  54.6452
   2949.34  55.7571
   2969.47  56.8917
   2989.74  58.0499
   3010.14  59.2319
   3030.69  60.4385
   3051.38  61.6713
   3072.20  62.9292
   3093.17  64.2142
   3114.29  65.5255
   3135.54  66.8646
   3156.94  68.2317
   3178.49  69.6271
   3200.19  71.0524
   3222.03  72.5068
   3244.02  73.9929
   3266.17  75.5097
   3288.46  77.0585
   3310.90  78.6402
   3333.50  80.2546
   3356.26  81.9035
   3379.17  83.5863
   3402.23  85.3056
   3425.45  87.0610
   3448.83  88.8537
   3472.37  90.6848
   3496.07  92.5538
   3519.94  94.4643
   3543.96  96.4138
   3568.15  98.4060
   3592.51  100.440
   3617.03  102.518
   3641.72  104.641
   3666.57  106.809
   3691.60  109.023
   3716.80  111.283
   3742.17  113.592
   3767.71  115.951
   3793.43  118.360
   3819.32  120.823
   3845.39  123.336
   3871.63  125.906
   3898.06  128.529
   3924.67  131.209
   3951.45  133.947
   3978.43  136.742
   4005.58  139.593
   4032.92  142.503
   4060.45  145.484
   4088.16  148.528
   4116.07  151.638
   4144.16  154.815
   4172.45  158.058
   4200.93  161.370
   4229.60  164.752
   4258.47  168.208
   4287.54  171.737
   4316.80  175.341
   4346.27  179.022
   4375.93  182.779
   4405.80  186.619
   4435.87  190.539
   4466.15  194.545
   4496.63  198.635
   4527.33  202.812
   4558.23  207.079
   4589.34  211.436
   4620.67  215.889
   4652.21  220.436
   4683.96  225.080
   4715.93  229.822
   4748.12  234.666
   4780.53  239.614
   4813.16  244.666
   4846.01  249.829
   4879.09  255.100
   4912.39  260.484
   4945.92  265.984
   4979.68  271.600
   5013.67  277.340
   5047.89  283.200
   5082.34  289.189
   5117.03  295.305
   5151.96  301.551
   5187.12  307.930
   5222.53  314.444
   5258.18  321.103
   5294.07  327.903
   5330.20  334.850
   5366.58  341.945
   5403.21  349.193
   5440.09  356.600
   5477.23  364.161
   5514.61  371.889
   5552.25  379.779
   5590.15  387.836
   5628.31  396.063
   5666.72  404.467
   5705.40  413.057
   5744.34  421.828
   5783.55  430.793
   5823.03  439.948
   5862.77  449.303
   5902.79  458.859
   5943.08  468.617
   5983.65  478.585
   6024.49  488.765
   6065.61  499.166
   6107.01  509.786
   6148.69  520.641
   6190.66  531.732
   6232.92  543.059
   6275.46  554.629
   6318.29  566.443
   6361.42  578.516
   6404.84  590.846
   6448.56  603.439
   6492.57  616.308
   6536.89  629.448
   6581.50  642.879
   6626.43  656.592
   6671.66  670.601
   6717.19  684.909
   6763.04  699.521
   6809.21  714.448
   6855.68  729.688
   6902.48  745.266
   6949.59  761.170
   6997.02  777.421
   7044.78  794.019
   7092.87  810.970
   7141.28  828.290
   7190.02  845.972
   7239.10  864.040
   7288.51  882.489
   7338.26  901.330
   7388.35  920.569
   7438.78  940.217
   7489.55  960.303
   7540.67  980.805
   7592.14  1001.75
   7643.96  1023.13
   7696.14  1044.97
   7748.67  1067.28
   7801.56  1090.06
   7854.81  1113.33
   7908.42  1137.08
   7962.40  1161.34
   8016.75  1186.11
   8071.47  1211.42
   8126.56  1237.27
   8182.03  1263.67
   8237.88  1290.63
   8294.10  1318.16
   8350.72  1346.28
   8407.71  1374.99
   8465.10  1404.29
   8522.88  1434.23
   8581.05  1464.77
   8639.63  1495.98
   8698.60  1527.82
   8757.97  1560.35
   8817.75  1593.55
   8877.93  1627.44
   8938.53  1662.06
   8999.54  1697.38
   9060.97  1733.45
   9122.81  1770.26
   9185.08  1807.83
   9247.78  1846.19
   9310.90  1885.33
   9374.45  1925.29
   9438.44  1966.06
   9502.86  2007.68
   9567.72  2050.15
   9633.03  2093.50
   9698.78  2137.75
   9764.98  2182.89
   9831.63  2228.95
   9898.74  2275.93
   9966.30  2323.88
   10034.3  2372.84
   10102.8  2422.82
   10171.8  2473.80
   10241.2  2525.80
   10311.1  2578.89
   10381.5  2633.01
   10452.3  2688.23
   10523.7  2744.55
   10595.5  2801.98
   10667.8  2860.58
   10740.7  2920.30
   10814.0  2981.24
   10887.8  3043.35
   10962.1  3106.70
   11036.9  3171.28
   11112.2  3237.12
   11188.1  3304.26
   11264.5  3372.69
   11341.3  3442.46
   11418.8  3513.55
   11496.7  3586.00
   11575.2  3659.84
   11654.2  3735.05
   11733.7  3811.72
   11813.8  3889.80
   11894.4  3969.39
   11975.6  4050.44
   12057.4  4132.99
   12139.7  4217.05
   12222.5  4302.63
   12306.0  4389.87
   12390.0  4478.65
   12474.5  4569.05
   12559.7  4661.04
   12645.4  4754.67
   12731.7  4850.00
   12818.6  4946.98
   12906.1  5045.67
   12994.2  5146.05
   13082.9  5248.21
   13172.2  5352.15
   13262.1  5457.84
   13352.6  5565.32
   13443.8  5674.58
   13535.5  5785.72
   13627.9  5898.65
   13720.9  6013.45
   13814.6  6130.10
   13908.9  6248.61
   14003.8  6369.08
   14099.4  6491.42
   14195.6  6615.68
   14292.5  6741.86
   14390.1  6869.99
   14488.3  7000.10
   14587.2  7132.12
   14686.8  7266.09
   14787.0  7401.98
   14887.9  7539.92
   14989.5  7679.83
   15091.9  7822.39
   15194.9  7967.07
   15298.6  8113.76
   15403.0  8262.54
   15508.1  8413.35
   15614.0  8566.23
   15720.6  8721.14
   15827.9  8878.08
   15935.9  9037.04
   16044.7  9198.02
   16154.2  9361.04
   16264.5  9526.05
   16375.5  9693.10
   16487.2  9862.17
   16599.8  10033.2
   16713.1  10206.2
   16827.2  10381.2
   16942.0  10558.1
   17057.6  10736.9
   17174.1  10917.6
   17291.3  11100.2
   17409.3  11284.6
   17528.2  11470.8
   17647.8  11658.8
   17768.2  11848.6
   17889.5  12040.1
   18011.6  12233.3
   18134.6  12428.2
   18258.4  12624.7
   18383.0  12822.7
   18508.5  13022.4
   18634.8  13223.5
   18762.0  13426.1
   18890.0  13630.1
   19019.0  13835.5
   19148.8  14042.2
   19279.5  14250.1
   19411.1  14459.3
   19543.6  14669.5
   19677.0  14880.9
   19811.3  15088.9
   19946.5  15288.7
   20082.6  15491.5
   20219.7  15713.4
   20357.7  15937.0
   20496.7  16161.6
   20636.6  16387.3
   20777.4  16613.9
   20919.3  16841.3
   21062.1  17069.6
   21205.8  17298.5
   21350.6  17528.3
   21496.3  17758.6
   21643.0  17989.5
   21790.7  18220.9
   21939.5  18452.8
   22089.2  18685.1
   22240.0  18917.6
   22391.8  19150.5
   22544.6  19383.6
   22698.5  19616.7
   22853.4  19850.0
   23009.4  20083.2
   23166.5  20316.4
   23324.6  20549.4
   23483.8  20782.2
   23644.1  21014.8
   23805.5  21247.0
   23968.0  21478.9
   24131.6  21710.3
   24296.3  21941.1
   24462.1  22171.4
   24629.1  22401.0
   24797.2  22629.9
   24966.4  22858.0
   25136.9  23085.3
   25308.4  23311.6
   25481.2  23537.1
   25655.1  23761.5
   25830.2  23984.8
   26006.5  24207.0
   26184.0  24428.0
   26362.7  24647.8
   26542.7  24866.3
   26723.9  25083.3
   26906.3  25299.0
   27089.9  25513.3
   27274.8  25726.0
   27461.0  25937.2
   27648.4  26146.8
   27837.1  26354.7
   28027.1  26561.0
   28218.4  26765.6
   28411.1  26968.3
   28605.0  27169.3
   28800.2  27368.4
   28996.8  27565.7
   29194.7  27761.0
   29394.0  27954.4
   29594.6  28145.8
   29796.6  28335.2
   30000.0  28522.6
