; C10H8O4 Density=1.4, Angle=90.deg
; Photon Energy (eV), Atten Length (microns)
; http://henke.lbl.gov/optical_constants/atten2.html
   1000.00  2.44367
   1032.71  2.66522
   1066.49  2.90953
   1101.38  3.17757
   1137.41  3.47037
   1174.62  3.79003
   1213.04  4.13913
   1252.73  4.52153
   1293.70  4.94435
   1336.03  5.40819
   1379.73  5.91551
   1424.86  6.47042
   1471.47  7.07781
   1519.61  7.74813
   1569.32  8.48586
   1620.66  9.29411
   1673.67  10.1792
   1728.42  11.1491
   1784.96  12.2206
   1843.35  13.3985
   1903.65  14.6897
   1965.93  16.1053
   2030.24  17.6517
   2096.65  19.3625
   2165.24  21.2431
   2236.07  23.3107
   2309.22  25.5841
   2384.76  28.0848
   2462.77  30.8354
   2543.33  33.8622
   2626.53  37.1934
   2712.45  40.8608
   2801.18  44.8990
   2892.81  49.3476
   2987.44  54.2494
   3085.17  59.6520
   3186.09  65.6104
   3290.32  72.1827
   3397.95  79.4339
   3509.11  87.4393
   3623.90  96.2838
   3742.44  106.058
   3864.87  116.863
   3991.30  128.812
   4121.86  142.021
   4256.70  156.620
   4395.95  172.747
   4539.75  190.563
   4688.25  210.250
   4841.62  232.002
   5000.00  256.038
   5163.56  282.611
   5332.47  311.979
   5506.91  344.453
   5687.06  380.335
   5873.09  420.017
   6065.22  463.890
   6263.63  512.402
   6468.52  566.035
   6680.13  625.344
   6898.65  690.891
   7124.32  763.356
   7357.37  843.442
   7598.05  931.941
   7846.60  1029.72
   8103.28  1137.70
   8368.36  1257.03
   8642.11  1388.75
   8924.81  1534.09
   9216.77  1694.37
   9518.27  1871.01
   9829.64  2065.56
   10151.2  2279.76
   10483.3  2515.48
   10826.2  2774.46
   11180.3  3058.66
   11546.1  3370.17
   11923.8  3711.00
   12313.8  4083.33
   12716.6  4489.33
   13132.6  4931.00
   13562.2  5410.47
   14005.9  5929.47
   14464.1  6489.72
   14937.2  7092.40
   15425.8  7741.60
   15930.5  8436.40
   16451.6  9176.49
   16989.8  9961.56
   17545.5  10790.4
   18119.5  11661.0
   18712.2  12570.6
   19324.3  13515.6
   19956.5  14475.9
   20609.3  15492.6
   21283.5  16549.3
   21979.7  17626.2
   22698.7  18717.3
   23441.3  19815.9
   24208.1  20915.5
   25000.0  22009.0
