; Si Density=2.33, Angle=90.deg
; http://henke.lbl.gov/optical_constants/atten2.html
; Photon Energy (eV), Atten Length (microns)
   1000.00  2.67813
   1032.71  2.94263
   1066.49  3.23328
   1101.38  3.54435
   1137.41  3.86045
   1174.62  4.20420
   1213.04  4.57909
   1252.73  4.98845
   1293.70  5.43439
   1336.03  5.92331
   1379.73  6.45676
   1424.86  7.04028
   1471.47  7.67825
   1519.61  8.38496
   1569.32  9.17167
   1620.66  10.0327
   1673.67  10.9750
   1728.42  12.0055
   1784.96  13.1707
   1843.35  1.27427
   1903.65  1.37627
   1965.93  1.48648
   2030.24  1.60599
   2096.65  1.73648
   2165.24  1.88067
   2236.07  2.03848
   2309.22  2.21113
   2384.76  2.40012
   2462.77  2.60705
   2543.33  2.83357
   2626.53  3.08162
   2712.45  3.35318
   2801.18  3.65071
   2892.81  3.97657
   2987.44  4.33368
   3085.17  4.72488
   3186.09  5.15355
   3290.32  5.62345
   3397.95  6.13871
   3509.11  6.70351
   3623.90  7.32282
   3742.44  8.00207
   3864.87  8.74723
   3991.30  9.56470
   4121.86  10.4615
   4256.70  11.4456
   4395.95  12.5256
   4539.75  13.7112
   4688.25  15.0128
   4841.62  16.4417
   5000.00  18.0102
   5163.56  19.7339
   5332.47  21.6260
   5506.91  23.7045
   5687.06  25.9884
   5873.09  28.4970
   6065.22  31.2542
   6263.63  34.2829
   6468.52  37.6136
   6680.13  41.2719
   6898.65  45.2951
   7124.32  49.7172
   7357.37  54.5792
   7598.05  59.9255
   7846.60  65.8041
   8103.28  72.2693
   8368.36  79.3793
   8642.11  87.1999
   8924.81  95.8025
   9216.77  105.266
   9518.27  115.676
   9829.64  127.130
   10151.2  139.733
   10483.3  153.602
   10826.2  168.863
   11180.3  185.656
   11546.1  204.137
   11923.8  224.478
   12313.8  246.860
   12716.6  271.495
   13132.6  298.603
   13562.2  328.438
   14005.9  361.269
   14464.1  397.393
   14937.2  437.146
   15425.8  480.906
   15930.5  529.061
   16451.6  582.046
   16989.8  640.325
   17545.5  704.426
   18119.5  774.912
   18712.2  852.402
   19324.3  937.567
   19956.5  1031.15
   20609.3  1134.01
   21283.5  1246.78
   21979.7  1370.32
   22698.7  1505.56
   23441.3  1653.48
   24208.1  1815.09
   25000.0  1991.47
